# Melting pressure [bars] vs T [K] (Greywall86)
# T he3_pmelt
1.000000e-01 3.130571e+01
1.100000e-01 3.109749e+01
1.200000e-01 3.090450e+01
1.300000e-01 3.072578e+01
1.400000e-01 3.056043e+01
1.500000e-01 3.040765e+01
1.600000e-01 3.026673e+01
1.700000e-01 3.013703e+01
1.800000e-01 3.001805e+01
1.900000e-01 2.990942e+01
2.000000e-01 2.981086e+01
2.100000e-01 2.972227e+01
2.200000e-01 2.964368e+01
2.300000e-01 2.957530e+01
2.400000e-01 2.951750e+01
2.500000e-01 2.947083e+01
2.600000e-01 2.942680e+01
2.700000e-01 2.938186e+01
2.800000e-01 2.935370e+01
2.900000e-01 2.933285e+01
3.000000e-01 2.931909e+01
3.100000e-01 2.931222e+01
3.200000e-01 2.931205e+01
3.300000e-01 2.931841e+01
3.400000e-01 2.933113e+01
3.500000e-01 2.935007e+01
3.600000e-01 2.937506e+01
3.700000e-01 2.940597e+01
3.800000e-01 2.944268e+01
3.900000e-01 2.948506e+01
4.000000e-01 2.953299e+01
4.100000e-01 2.958637e+01
4.200000e-01 2.964509e+01
4.300000e-01 2.970904e+01
4.400000e-01 2.977813e+01
4.500000e-01 2.985228e+01
4.600000e-01 2.993139e+01
4.700000e-01 3.001539e+01
4.800000e-01 3.010418e+01
4.900000e-01 3.019770e+01
5.000000e-01 3.029586e+01
5.100000e-01 3.039861e+01
5.200000e-01 3.050587e+01
5.300000e-01 3.061757e+01
5.400000e-01 3.073366e+01
5.500000e-01 3.085406e+01
5.600000e-01 3.097873e+01
5.700000e-01 3.110760e+01
5.800000e-01 3.124062e+01
5.900000e-01 3.137773e+01
6.000000e-01 3.151889e+01
6.100000e-01 3.166403e+01
6.200000e-01 3.181312e+01
6.300000e-01 3.196610e+01
6.400000e-01 3.212292e+01
6.500000e-01 3.228355e+01
6.600000e-01 3.244793e+01
6.700000e-01 3.261601e+01
6.800000e-01 3.278777e+01
6.900000e-01 3.296315e+01
7.000000e-01 3.314210e+01
7.100000e-01 3.332460e+01
7.200000e-01 3.351060e+01
7.300000e-01 3.370006e+01
7.400000e-01 3.389294e+01
7.500000e-01 3.408921e+01
7.600000e-01 3.428881e+01
7.700000e-01 3.449172e+01
7.800000e-01 3.469790e+01
7.900000e-01 3.490731e+01
8.000000e-01 3.511992e+01
8.100000e-01 3.533568e+01
8.200000e-01 3.555457e+01
8.300000e-01 3.577655e+01
8.400000e-01 3.600159e+01
8.500000e-01 3.622965e+01
8.600000e-01 3.646070e+01
8.700000e-01 3.669470e+01
8.800000e-01 3.693163e+01
8.900000e-01 3.717145e+01
9.000000e-01 3.741414e+01
9.100000e-01 3.765965e+01
9.200000e-01 3.790797e+01
9.300000e-01 3.815905e+01
9.400000e-01 3.841287e+01
9.500000e-01 3.866939e+01
9.600000e-01 3.892858e+01
9.700000e-01 3.919041e+01
9.800000e-01 3.945485e+01
9.900000e-01 3.972184e+01
1.000000e+00 3.999136e+01
